1,63852.0944036514,-13561.6177758844,0
2,62985.8535853057,-11830.4604439369,0
3,62985.8535853057,-9830.46044393688,0
4,62985.8535853057,-7830.46044393688,0
5,62985.8535853057,-5830.46044393688,0
6,62985.8535853057,-3830.46044393688,0
7,62985.8535853057,-1830.46044393689,0
8,62985.8535853057,169.539556063111,0
9,62985.8535853057,2169.53955606311,0
10,62985.8535853057,4169.53955606311,0
11,62985.8535853057,6169.53955606311,0
12,62985.8535853057,8169.5395560631,0
13,62985.8535853057,10169.5395560631,0
14,62985.8535853057,12169.5395560631,0
15,62985.8535853057,14169.5395560631,0
16,62984.0662996687,17704.6262154663,0
17,62981.5654960996,19852.548247191,0
18,62811.0092871831,22277.1907126501,0
19,63017.1963274332,24414.0382206974,0
20,63073.4291565924,26475.9086231991,0
21,63080.1218001569,28752.3600957547,0
22,63210.3027877304,30846.7337553167,0
23,63746.0138072811,32020.8218082197,0
24,60639.1658344633,32229.027829836,0
34,59582.0469245542,33503.9386721206,0
35,60516.3704125986,30669.985488309,0
36,57717.3552172125,29791.7523343934,0
37,56224.8570450565,29848.8570450565,0
38,54224.8570450565,29848.8570450565,0
39,53236.0354133256,28532.3617229628,0
40,52224.8570450565,29848.8570450565,0
41,50388,30012,0
42,50388,32012,0
43,49238.689127393,34049,0
44,47132.211812929,34049,0
45,45204.0173236466,34049,0
46,43439.9497160041,34049,0
47,41563.0448772341,34049,0
48,39757.9455491816,34049,0
50,37913.887236514,34042.3959421473,0
51,37929.0701003869,31886.429272186,0
52,37913.887236514,29882.2912409543,0
53,37989.8015558788,27665.5931155011,0
54,38050.5330113707,25585.5407649046,0
55,38050.5330113707,23778.7799640215,0
56,38065.7158752436,21637.9961579331,0
57,38080.8987391166,20104.5269067634,0
58,39275.240903204,18330.0696389188,0
62,43275.240903204,18330.0696389188,0
63,45048.3711116135,19620.3533997625,0
64,47311.1690328256,19332.4981069752,0
65,47311.1690328256,21332.4981069752,0
66,47311.1690328256,23332.4981069752,0
67,46448.6398892139,25319.7572470745,0
68,46147.0783533279,27081.5164567273,0
69,46147.0783533279,29081.5164567273,0
70,46111.2452629988,31856.7994308463,0
72,42623.8605282878,29848.8570450565,0
73,40623.8605282878,29848.8570450565,0
74,40448.6398892139,25319.7572470745,0
75,42448.6398892139,25319.7572470745,0
76,44448.6398892139,25319.7572470745,0
77,49604.5313308947,25491.4048747074,0
78,51781.5710909882,25373.7270498375,0
79,53236.0354133256,25319.7572470745,0
80,53241.8582987339,27123.4072193636,0
81,50388,27914.8570450565,0
82,53236.0354133256,23362.3988902799,0
83,53029.2231172717,20814.5603192054,0
84,53165.8688921284,19068.5309738141,0
85,54334.9494103468,22014.0065651698,0
86,52648.7929863068,16273.203978638,0
87,55216.751444541,15834.7281373694,0
88,57716.7642446534,15727.6948475096,0
89,57679.2756918807,14490.5726060086,0
90,57679.174220141,11996.246780703,0
91,57709.539947887,10037.6573410903,0
94,57992.6954939297,6686.88091439408,0
96,57809.4417525637,4521.66785721927,0
97,58175.5969554503,3483.80992235131,0
98,58100.6198499047,1553.14945455424,0
99,58094.1374900327,-403.537588136892,0
100,58091.5985201024,-2610.21195643525,0
101,58139.6302595868,-4186.79560820042,0
102,55739.0135317852,-4508.1332602692,0
103,52583,-3520.27379415357,0
104,52583,-1257,0
105,50846.2737941536,-1257,0
106,49112.9033078541,-1483.42237819827,0
107,47339.6823045165,-1682.69865412595,0
108,47359.6450762946,-3670.61231637818,0
109,47332.1970511481,-5888.32732899742,0
110,47311.1690328256,-7509.10960761571,0
111,47311.1690328256,-9509.10960761571,0
112,45552.285544846,-9120.86204019883,0
113,43242.7549464144,-9120.86204019883,0
114,42266.1449272813,-12365.0028644265,0
115,42205.4134717895,-10406.4134248137,0
116,41768.0004395024,-13817.2612006511,0
117,39768.0004395024,-13817.2612006511,0
118,39052.6424149293,-8436.84406386377,0
119,49728,-9120.86204019883,0
120,38529.5723578348,-16987.6312567295,0
121,40529.5723578348,-16987.6312567295,0
122,42529.5723578348,-16987.6312567295,0
123,44529.5723578348,-16987.6312567295,0
124,43768.0004395024,-13817.2612006511,0
125,45768.0004395024,-13817.2612006511,0
126,47311.1690328256,-13509.1096076157,0
127,49247.4713741315,-13732.2578694583,0
128,50765.7577614282,-13884.086508188,0
129,52420.2766431075,-13790.0627292843,0
130,54147.0617134189,-17674.6319401939,0
131,55996.8430773465,-17683.3477173475,0
132,54705.5369849701,-11869.8022484918,0
133,53440.1602406601,-10428.4485679548,0
134,53837.394547115,-9057.78236081171,0
135,52251.1739953459,-7442.15099018077,0
136,52583,-5735.90036768378,0
137,37712.6452011423,-15898.9538699867,0
138,37661.7221960525,-13476.3926653225,0
139,37781.3011055712,-12129.1276065255,0
140,37871.6835467701,-10191.2800422784,0
141,38020.7433572496,-7496.46025731475,0
142,38020.7433572496,-5496.46025731475,0
143,38020.7433572496,-3496.46025731475,0
144,38020.7433572496,-1496.46025731476,0
145,38270.8951878597,1481.51392533179,0
146,42138.3660519041,1729.11267848836,0
147,42048.3009527286,322.610410073819,0
148,42249.7893544757,-815.50529386598,0
149,42253.6852415106,-2644.08589050766,0
150,45391,-938,0
151,47304.2722450939,431.659272671151,0
152,47303.5336351312,2434.51962779952,0
153,47311.1690328256,4490.89039238428,0
154,47285.4047111758,6489.77921496389,0
155,46127.2783977184,6470.4771097396,0
156,44825.4231492369,6490.33779021568,0
157,42771.6371531406,6453.44343100437,0
158,38875.4415165084,6455.44925149594,0
159,36875.4415165083,6455.44925149594,0
160,37113.332154467,8324.31273114128,0
161,37113.332154467,10324.3127311413,0
162,37113.332154467,12324.3127311413,0
163,37113.332154467,14324.3127311413,0
164,38065.7158752436,18358.4975613722,0
168,48675.5828633095,8471.53322054883,0
169,47263.9768638415,9929.42138393389,0
170,47311.1690328256,13332.4981069752,0
171,47311.1690328256,15332.4981069752,0
172,47311.1690328256,17332.4981069752,0
175,50958.3219828126,15964.5767455623,0
176,48995.0000000009,15890.6711261369,0
177,49423.2021487573,11946,0
178,51423.2021487573,11946,0
179,53423.2021487573,11946,0
180,55423.2021487573,11946,0
181,60687.9248542547,11862.0819372449,0
182,60618.5016083792,13736.5095758828,0
183,60618.5016083792,15648.4281065751,0
184,60618.5016083792,17638.5611550055,0
185,60595.3605264207,19721.2585312699,0
186,60664.7837722962,21889.7411571875,0
187,60572.2194444622,23903.0152875764,0
188,60525.9372805452,25700.1272837639,0
189,60563.2745282936,27517.7586841304,0
190,60485.1010021353,29353.3888909603,0
191,57718.5057059956,28867.1953400979,0
192,57673.1126918707,26816.1103942289,0
193,57710.6012446434,24566.7972278634,0
194,57702.2024780668,21962.0280007409,0
195,56023,18165,0
196,58023,18165,0
197,60639.1658344633,9756.24347902214,0
198,60664.7837722962,7961.53351270403,0
199,60664.7837722962,5693.70748077172,0
200,60641.6426903377,3732.82275567309,0
201,60618.5016083792,1858.39511703515,0
202,60595.3605264207,-106.214584594719,0
203,60618.5016083792,-1980.64222323265,0
204,60641.6426903377,-3952.39871938861,0
205,60641.6426903377,-5961.27465245075,0
206,60618.5016083792,-7878.06890583528,0
207,60618.5016083792,-9685.11783778716,0
208,60641.6426903377,-11421.3209364522,0
209,59022.1571417133,-12463.4224298158,0
210,58768.1152242262,-17257.2051132098,0
211,57004.6173723253,-13978.2465576381,0
212,54477.7940268756,-13691.7459132479,0
213,53095.1022889235,-13164.4311652369,0
214,60675.814160359,-18505.1383120058,0
215,60639.1658344633,-20922.4473983848,0
216,62799.0457350307,-20859.995149369,0
217,64597.317167196,-20811.2633721844,0
218,64555.537310441,-19084.2014687344,0
219,64506.9601327835,-17150.5426516208,0
220,60695.1162655833,-16922.3656836141,0
221,60656.5120551347,-14123.5604260923,0
225,57837.394547115,-9057.78236081171,0
226,55737.9686656891,-9065.4080074282,0
227,55735.7187930865,1342.97212315651,0
228,52913.2157083215,1329.46941849964,0
230,51147.1514918411,6404.09205537746,0
231,52996.1117325388,6416.75616661511,0
232,55756.8879823478,6454.74850032808,0
234,45121.152206204,4233.77136497906,0
235,43174.1544241422,4176.37636376812,0
236,41121.152206204,4233.77136497906,0
237,43903.5931371159,1608.94394356771,0
238,45571.6763046471,1680.43322217618,0
239,42202.7637881608,-6489.69924468379,0
240,42121.9458966594,-4536.99451388876,0
242,47237.8713583807,-11538.5488403074,0
243,42183.4616829365,-8185.41042095328,0
244,36231.1838907627,1634.8888457743,0
245,34116.2773140742,1584.23240082368,0
246,32217.6639566213,1519.5347228318,0
248,29172.1414504195,1573.88819199067,0
249,26538.0063129871,1662.53697065426,0
250,23219.1155112275,1653.96876212795,0
251,23095.1155112275,4604.15929569607,0
252,24434.0875669314,6465.79324644115,0
253,26662.9711447588,6465.79324644115,0
258,28736.1408435978,6444.72965367196,0
259,29317.1820621829,4883.02306108371,0
261,33074.7987505761,4269.5312615103,0
262,34759.1255451843,4244.20303903499,0
263,36658.7422308327,4206.21070532202,0
264,34038.8630421483,6430.8588790194,0
265,32287.7760562009,6399.58946855605,0
266,30538.7799122203,6383.54109360832,0
267,26533.1099844675,4775.87648591173,0
269,22657.8919457448,6434.87505804463,0
270,20378.3519229668,6472.86739175759,0
271,17389.62167088,6447.53916928228,0
272,15885.6461164837,6470.6656466061,0
273,13598.1277036259,6439.89185629859,0
274,11474.7361724082,6450.14978640109,0
275,10001.6779647482,6458.23258156798,0
276,8152.71772405046,6458.23258156798,0
277,6215.10870468913,6521.55313775626,0
278,5024.68224834949,5647.72946235801,0
279,4994.64247730797,3160.38044878079,0
280,5025.87669277176,1511,0
281,1598.87669277176,1511,0
282,1596.89096446593,4034.12498554761,0
283,1596.89096446593,5964.33550797646,0
284,1654.7972801388,7740.129188611,0
285,1592.51661820924,10515.5681338329,0
292,5025.87669277176,9652.26401791919,0
294,9399.24874192062,9741.96105031846,0
295,9379.94663669633,11382.639994383,0
296,9360.64453147204,12926.8084123261,0
297,9424.04024795056,14837.4969321729,0
298,12337.1640392384,14799.112619082,0
299,14799.3849949473,14659.5291964501,0
300,14816.8938696286,12285.5901512203,0
301,14797.5917644043,10876.5364698473,0
302,14799.3849949473,8583.19106589736,0
303,14623.7112288586,4432.26675984007,0
304,12476.6982492809,4426.73176814185,0
305,10463.1045624937,4426.73176814185,0
306,8538,4432.26675984007,0
307,8538,1484.1622933487,0
308,10389.9970287448,1528.89920444516,0
309,12390.9266042944,1503.57098196985,0
310,14623.7112288586,1484.16229334869,0
311,51595.5395788937,34058.3780719976,0
312,53561.3268698462,34096.3704057106,0
313,55561.8654683184,34083.7062944729,0
314,57560.6248681389,34071.0421832353,0
315,56864.0655653141,36678.3147503741,0
